[ 0, 0.353621, 0.879195, 1.6803, 2.65031, 3.59145, 4.20622, 4.24319, 3.65013, 2.80985, 1.90828, 1.14051, 0.676967, 0.467321, 0.298878, 0.289394, 0.284898, 0.219195, 0.153073, 0.115177, 0.0853517, 0.053055, 0.0489709, 0.0709257, 0.109321, 0.20584, 0.411781, 0.836559, 1.54619, 2.44404, 3.52247, 4.59849, 5.56267, 6.29479, 6.7861, 7.16044, 7.49494, 7.87688, 8.24322, 8.56019, 8.88474, 9.1238, 9.26698, 9.38561, 9.44216, 9.34012, 9.14345, 8.88653, 8.46564, 7.87104, 7.23919, 7.07761, 7.48789, 8.31744, 8.94247, 9.47811, 9.98075, 10.3619, 10.5596, 10.6752, 10.9346, 11.1559, 11.3878, 11.6101, 11.8504, 12.061, 12.1948, 12.3236, 12.4627, 12.5901, 12.6571, 12.6999, 12.7151, 12.6844, 12.6453, 12.6298, 12.524, 12.4844, 12.5157, 12.5542, 12.5408, 12.4429, 12.3153, 12.1967, 12.1301, 12.0796, 11.8123, 11.4483, 10.8387, 9.78522, 8.36393, 6.97292, 5.68368, 4.53136, 3.66648, 3.10558, 3.12811, 4.01484, 5.50551, 6.40247, 7.0298, 7.85897, 8.9244, 9.69121, 10.2603, 10.6962, 11.0031, 11.3078, 11.5596, 11.7866, 12.0032, 12.2181, 12.3865, 12.4921, 12.4594, 12.3521, 12.1727, 11.9858, 11.8036, 11.572, 11.3806, 11.133, 10.8522, 10.5488, 10.2053, 9.81483, 9.27697, 8.46706, 7.17001, 5.6813, 3.97429, 2.38858, 1.26863, 0.622657, 0.308186, 0.157688, 0.0910622, 0.072862, 0.0934051, 0.163611, 0.320796, 0.648486, 1.32069, 2.66732, 3.74368, 4.54204, 5.44919, 6.30842, 7.1029, 7.65988, 7.7196, 7.52408, 7.02469, 6.17086, 4.82985, 3.55404, 2.46048, 1.7313, 1.7905, 2.73704, 3.1219, 3.19855, 3.64569, 4.85841, 5.94246, 6.67668, 7.29271, 7.74116, 8.15461, 8.61442, 9.10395, 9.54305, 9.99497, 10.3704, 10.7258, 11.0375, 11.3175, 11.603, 11.9389, 12.2167, 12.3936, 12.5114, 12.5802, 12.5841, 12.5261, 12.429, 12.3479, 12.2925, 12.2859, 12.2344, 12.1482, 12.0139, 11.7823, 11.5964, 11.4366, 11.3504, 11.344, 11.3605, 11.4082, 11.5119, 11.6042, 11.6971, 11.7339, 11.6819, 11.4619, 11.1654, 10.8166, 10.3741, 10.028, 9.8057, 9.69398, 9.6697, 9.73502, 9.87068, 10.0472, 10.257, 10.452, 10.5662, 10.5867, 10.5307, 10.4223, 10.2788, 10.1251, 9.82717, 9.22867, 8.0685, 6.35578, 4.55706, 2.96745, 1.65266, 0.820078, 0.424259, 0.254197, 0.166165, 0.166499, 0.202185, 0.249655, 0.429845, 0.838477, 1.42669, 1.86884, 2.45296, 3.10623, 3.64923, 4.21627, 4.84248, 5.40318, 5.83506, 6.38881, 7.19784, 7.98906, 8.68311, 9.46768, 10.3807, 10.9298, 11.5939, 12.4578, 13.3092, 13.9155, 14.2568, 14.7806, 15.2854, 15.5573, 15.6221, 15.4961, 15.3689, 15.2264, 15.0991, 15.1517, 15.2299, 15.2371, 15.1574, 15.0555, 15.0046, 15.2197, 15.6099, 15.8293, 15.9013, 15.8135, 15.6065, 15.2998, 14.9653, 14.7432, 14.7046, 14.9321, 15.5046, 16.4388, 17.2821, 17.9314, 18.426, 18.6602, 18.6991, 18.6299, 18.4498, 18.2295, 18.0801, 17.89, 17.7494, 17.5835, 17.3472, 17.0333, 16.6886, 16.3952, 16.0821, 15.8637, 15.787, 15.7721, 15.7418, 15.7329, 15.7563, 15.8081, 15.8094, 15.8305, 15.8136, 15.8559, 15.9469, 16.0602, 16.1496, 16.0517, 15.5912, 14.779, 13.7824, 12.9854, 12.2963, 11.2963, 9.7769, 7.78969, 5.81356, 3.95789, 2.41187, 1.27485, 0.657653, 0.390554, 0.278042, 0.260221, 0.380754, 0.703664, 1.4004, 2.01139, 2.26597, 2.56557, 3.21778, 4.14271, 5.1289, 5.80707, 6.35231, 6.78906, 7.16375, 7.56922, 8.20395, 9.18469, 10.0051, 10.6448, 11.1951, 11.6304, 11.8645, 11.9707, 12.0384, 12.0879, 12.1826, 12.2663, 12.3306, 12.4095, 12.4918, 12.568, 12.6256, 12.5896, 12.3894, 11.9635, 11.6023, 11.5102, 11.6038, 11.8035, 12.0972, 12.0575, 11.5671, 10.3245, 8.2246, 6.06083, 3.94369, 2.2308, 1.1019, 0.560193, 0.31666, 0.14587, 0.052672, 1.0101e+08, 686.438, 968.327, 1420.21, 1697.92, 1652.36, 1119.89, 174.897, -857.64, -1264.8, -1367.55, -1150.03, -652.388, -236.587, -169.154, 91.3312, 99.5043, -0.817327, -1.51876, 44.7353, 57.9597, 53.9059, 100.145, 142.824, 169.773, 265.041, 444.402, 803.137, 1270.25, 1579.45, 1876.95, 1875.71, 1696.07, 1319.84, 928.799, 739.789, 676.676, 756.512, 733.397, 654.985, 669.641, 531.894, 376.555, 337.449, 236.611, -22.8705, -178.791, -279.064, -549.771, -837.554, -902.72, -135.926, 800.398, 1490.1, 1160.42, 1018.44, 968.499, 773.433, 476.174, 343.236, 579.915, 519.954, 539.427, 525.761, 557.411, 511.071, 387.482, 380.578, 398.647, 381.087, 283.446, 244.475, 199.537, 124.69, 110.394, 148.878, 0.563197, 107.967, 223.693, 235.843, 151.326, 12.4959, -37.0779, -23.6145, 60.3128, 86.0358, -269.954, -430.961, -837.156, -1570.39, -2182.41, -2143.63, -1985.81, -1768.26, -1302.1, -806.839, 147.821, 1564.35, 2556.9, 1589.75, 1152.31, 1486.69, 1879.13, 1397.19, 1079.1, 865.589, 658.152, 657.163, 573.461, 535.102, 520.273, 519.819, 445.649, 344.513, 118.947, -3.59359, -122.981, -137.184, -131.341, -214.1, -150.485, -244.436, -301.127, -340.854, -409.37, -489.332, -734.181, -1184.4, -1988.9, -2311.58, -2677.42, -2485.56, -1726.4, -951.26, -408.428, -139.794, -2.35423, 77.011, 140.512, 221.912, 364.483, 643.979, 1208.79, 2314.74, 1874.04, 1421.29, 1602.37, 1527.65, 1425.78, 1041, 229.422, -188.54, -687.846, -1271.85, -2075.1, -1974.45, -1680.24, -1085.77, 205.135, 1659.6, 740.806, 236.565, 844.026, 2100.14, 1893.57, 1325.13, 1135.31, 864.244, 809.736, 888.475, 940.457, 861.431, 885.895, 764.28, 734.588, 666.242, 617.023, 628.639, 714.134, 622.211, 459.594, 364.552, 285.491, 179.899, 78.3818, 13.8543, 38.9112, 80.1595, 159.743, 85.9264, 28.569, -51.127, -212.012, -139.435, -98.4182, 20.5329, 150.707, 187.989, 239.313, 331.641, 313.994, 315.799, 224.788, 79.5784, -196.453, -323.672, -412.435, -569.117, -415.123, -215.253, -35.7874, 106.608, 253.262, 369.098, 437.204, 493.243, 470.749, 339.962, 187.471, 62.2559, -24.1313, -82.6574, -100.581, -338.387, -833.455, -1758.87, -2672.98, -2824.33, -2489.86, -2044.45, -1256.64, -541.641, -171.824, -37.4223, 107.397, 165.342, 184.659, 402.204, 776.681, 1071.23, 832.406, 1065.7, 1180.1, 1000.9, 1041.85, 1140.72, 1035.71, 827.001, 1028.79, 1450.07, 1425.49, 1271.28, 1424.52, 1641.13, 1052.21, 1245.55, 1579.46, 1567.54, 1175.28, 747.672, 1050.93, 1026.2, 650.978, 314.931, 2.9833, -0.440016, -27.3009, -4.24003, 289.07, 331.564, 216.436, 73.9101, 36.5062, 118.812, 554.314, 843.835, 568.987, 330.333, 69.3872, -127.03, -293.296, -343.027, -162.88, 135.193, 570.711, 1139.05, 1739.32, 1602.75, 1296.74, 1052.89, 633.731, 317.108, 140.623, -42.1308, -110.964, 1.88562, -67.1297, 11.204, -32.5729, -150.231, -280.914, -336.091, -256.705, -293.271, -142.138, 87.0041, 187.433, 161.824, 196.64, 249.452, 296.156, 214.29, 246.658, 184.616, 281.359, 361.961, 399.596, 361.943, 56.0846, -539.423, -1122.09, -1434.6, -1119.53, -951.609, -1468.52, -2329.81, -3110.03, -3106.58, -2920.44, -2420.55, -1754.34, -904.083, -330.767, -77.508, 77.6607, 304.426, 636.163, 1249.02, 1109.11, 525.814, 600.051, 1178.6, 1627.2, 1730.47, 1229.47, 1014.71, 839.666, 740.385, 793.032, 1171.3, 1742.65, 1486.96, 1197.58, 1056.55, 872.969, 547.532, 340.196, 278.095, 249.004, 323.607, 306.54, 275.463, 300.204, 306.518, 297.425, 267.764, 114.98, -154.577, -526.553, -425.009, 12.6767, 316.063, 490.809, 646.846, 103.38, -635.71, -1873.46, -3290.17, -3411.2, -3347.76, -2694.11, -1741.38, -780.533, -292.19, -173.051, -45.9083, 1.0101e+08, 787.57, 1110.99, 1629.45, 1948.07, 1895.8, 1284.88, 200.665, -983.995, -1451.14, -1569.03, -1319.46, -748.504, -271.443, -194.075, 104.787, 114.164, -0.937743, -1.74252, 51.326, 66.4988, 61.8478, 114.9, 163.866, 194.785, 304.089, 509.876, 921.462, 1457.39, 1812.15, 2153.48, 2152.05, 1945.95, 1514.29, 1065.64, 848.781, 776.37, 867.968, 841.447, 751.482, 768.298, 610.258, 432.033, 387.165, 271.47, -26.24, -205.131, -320.178, -630.768, -960.949, -1035.72, -155.952, 918.32, 1709.64, 1331.38, 1168.49, 1111.19, 887.382, 546.328, 393.804, 665.353, 596.558, 618.9, 603.22, 639.533, 586.366, 444.569, 436.648, 457.379, 437.232, 325.206, 280.494, 228.934, 143.061, 126.658, 170.812, 0.646172, 123.873, 256.649, 270.59, 173.621, 14.3369, -42.5405, -27.0936, 69.1986, 98.7114, -309.727, -494.454, -960.493, -1801.76, -2503.95, -2459.45, -2278.37, -2028.77, -1493.93, -925.709, 169.6, 1794.82, 2933.61, 1823.96, 1322.08, 1705.72, 2155.98, 1603.04, 1238.08, 993.115, 755.117, 753.982, 657.948, 613.938, 596.924, 596.403, 511.306, 395.27, 136.471, -4.12303, -141.1, -157.396, -150.691, -245.643, -172.656, -280.448, -345.491, -391.072, -469.682, -561.424, -842.347, -1358.9, -2281.92, -2652.14, -3071.88, -2851.76, -1980.75, -1091.41, -468.602, -160.39, -2.70108, 88.357, 161.213, 254.606, 418.181, 738.856, 1386.88, 2655.77, 2150.14, 1630.69, 1838.44, 1752.72, 1635.84, 1194.37, 263.223, -216.317, -789.185, -1459.23, -2380.82, -2265.34, -1927.78, -1245.73, 235.357, 1904.11, 849.948, 271.418, 968.375, 2409.55, 2172.54, 1520.36, 1302.57, 991.572, 929.033, 1019.37, 1079.01, 988.345, 1016.41, 876.881, 842.814, 764.398, 707.928, 721.255, 819.347, 713.881, 527.306, 418.261, 327.552, 206.403, 89.9296, 15.8954, 44.644, 91.9693, 183.278, 98.5859, 32.778, -58.6595, -243.247, -159.978, -112.918, 23.558, 172.91, 215.686, 274.571, 380.501, 360.254, 362.325, 257.906, 91.3026, -225.396, -371.358, -473.199, -652.964, -476.282, -246.966, -41.0599, 122.314, 290.574, 423.476, 501.616, 565.912, 540.104, 390.049, 215.09, 71.4279, -27.6865, -94.8352, -115.399, -388.241, -956.246, -2018, -3066.79, -3240.43, -2856.68, -2345.66, -1441.78, -621.44, -197.139, -42.9357, 123.219, 189.702, 211.865, 461.46, 891.109, 1229.06, 955.043, 1222.71, 1353.96, 1148.36, 1195.34, 1308.77, 1188.3, 948.842, 1180.36, 1663.71, 1635.5, 1458.58, 1634.4, 1882.92, 1207.23, 1429.05, 1812.16, 1798.48, 1348.43, 857.826, 1205.76, 1177.39, 746.885, 361.329, 3.42283, -0.504843, -31.3231, -4.86471, 331.659, 380.413, 248.324, 84.7992, 41.8846, 136.316, 635.98, 968.156, 652.815, 379, 79.6099, -145.745, -336.507, -393.564, -186.877, 155.111, 654.794, 1306.87, 1995.57, 1838.89, 1487.78, 1208.01, 727.097, 363.827, 161.34, -48.3378, -127.313, 2.16343, -77.0198, 12.8546, -37.3718, -172.364, -322.3, -385.606, -294.525, -336.479, -163.078, 99.8222, 215.048, 185.665, 225.611, 286.204, 339.788, 245.861, 282.998, 211.815, 322.811, 415.289, 458.467, 415.267, 64.3475, -618.895, -1287.41, -1645.96, -1284.47, -1091.81, -1684.87, -2673.05, -3568.23, -3564.27, -3350.71, -2777.17, -2012.81, -1037.28, -379.498, -88.9271, 89.1024, 349.276, 729.888, 1433.03, 1272.51, 603.282, 688.455, 1352.24, 1866.93, 1985.42, 1410.6, 1164.2, 963.372, 849.465, 909.868, 1343.87, 1999.39, 1706.03, 1374.02, 1212.21, 1001.58, 628.199, 390.316, 319.067, 285.689, 371.283, 351.702, 316.047, 344.432, 351.677, 341.244, 307.213, 131.92, -177.351, -604.129, -487.625, 14.5444, 362.629, 563.119, 742.145, 118.611, -729.368, -2149.48, -3774.91, -3913.77, -3840.98, -3091.03, -1997.94, -895.528, -335.238, -198.546, -52.672 ]
